x,y,theta
0.000000000000000000e+00,0.000000000000000000e+00,7.853647628511016832e-01
2.002002002002002123e-01,2.001868270547348116e-01,7.852645558581506924e-01
4.004004004004004247e-01,4.002934216684664870e-01,7.849638545638794040e-01
6.006006006006006093e-01,6.002395835563765214e-01,7.844624180062066410e-01
8.008008008008008494e-01,7.999451767331280383e-01,7.837598445298730176e-01
1.001001001001001089e+00,9.993301616303927881e-01,7.828555717121123969e-01
1.201201201201201219e+00,1.198314627175733005e+00,7.817488762653592715e-01
1.401401401401401570e+00,1.396818822819988704e+00,7.804388739238234951e-01
1.601601601601601699e+00,1.594763190500322336e+00,7.789245193228443442e-01
1.801801801801801828e+00,1.792068396526123486e+00,7.772046058821102665e-01
2.002002002002002179e+00,1.988655363374985940e+00,7.752777657060448968e-01
2.202202202202202308e+00,2.184445301386011451e+00,7.731424695171150718e-01
2.402402402402402437e+00,2.379359740337750218e+00,7.707970266403088022e-01
2.602602602602602566e+00,2.573320560898105569e+00,7.682395850597488751e-01
2.802802802802803139e+00,2.766250025933614687e+00,7.654681315712906775e-01
3.003003003003003268e+00,2.958070811665539424e+00,7.624804920580592338e-01
3.203203203203203397e+00,3.148706038660299633e+00,7.592743319191822549e-01
3.403403403403403527e+00,3.338079302641808077e+00,7.558471566855573531e-01
3.603603603603603656e+00,3.526114705113378989e+00,7.521963128602671134e-01
3.803803803803804229e+00,3.712736883776917463e+00,7.483189890253798549e-01
4.004004004004004358e+00,3.897871042737208302e+00,7.442122172612704034e-01
4.204204204204204487e+00,4.081442982479204673e+00,7.398728749291819673e-01
4.404404404404404616e+00,4.263379129606285289e+00,7.352976868728219317e-01
4.604604604604604745e+00,4.443606566327576779e+00,7.304832280999806748e-01
4.804804804804804874e+00,4.622053059682516896e+00,7.254259270107715762e-01
5.005005005005005003e+00,4.798647090490942624e+00,7.201220692449270544e-01
5.205205205205205132e+00,4.973317882017108005e+00,7.145678022266986895e-01
5.405405405405406150e+00,5.145995428336135546e+00,7.087591404922450877e-01
5.605605605605606279e+00,5.316610522391540528e+00,7.026919718908953838e-01
5.805805805805806408e+00,5.485094783732572310e+00,6.963620647583252943e-01
6.006006006006006537e+00,5.651380685920271318e+00,6.897650761663511876e-01
6.206206206206206666e+00,5.815401583591236268e+00,6.828965613605990637e-01
6.406406406406406795e+00,5.977091739168280071e+00,6.757519845037569528e-01
6.606606606606606924e+00,6.136386349207243462e+00,6.683267308481291025e-01
6.806806806806807053e+00,6.293221570369431639e+00,6.606161204667198028e-01
7.007007007007007182e+00,6.447534545009242279e+00,6.526154236767900407e-01
7.207207207207207311e+00,6.599263426366746899e+00,6.443198782935826152e-01
7.407407407407407440e+00,6.748347403355117180e+00,6.357247088542316016e-01
7.607607607607608458e+00,6.894726724932967343e+00,6.268251479526039116e-01
7.807807807807808587e+00,7.038342724051842580e+00,6.176164598244189285e-01
8.008008008008008716e+00,7.179137841169261236e+00,6.080939663181355037e-01
8.208208208208208845e+00,7.317055647317872946e+00,5.982530753801346135e-01
8.408408408408408974e+00,7.452040866721504564e+00,5.880893121724209971e-01
8.608608608608609103e+00,7.584039398949016686e+00,5.775983529264185901e-01
8.808808808808809232e+00,7.712998340597096991e+00,5.667760616173899146e-01
9.009009009009009361e+00,7.838866006493301342e+00,5.556185295194538964e-01
9.209209209209209490e+00,7.961591950410838336e+00,5.441221176708682661e-01
9.409409409409409619e+00,8.081126985286800846e+00,5.322835022425600471e-01
9.609609609609609748e+00,8.197423202935752329e+00,5.200997227589856386e-01
9.809809809809809877e+00,8.310433993250725848e+00,5.075682330695571176e-01
1.001001001001001001e+01,8.420114062884005435e+00,4.946869549101018393e-01
1.021021021021021014e+01,8.526419453400134074e+00,4.814543338273979400e-01
1.041041041041041026e+01,8.629307558893927421e+00,4.678693971660417006e-01
1.061061061061061039e+01,8.728737143066394921e+00,4.539318137357451488e-01
1.081081081081081230e+01,8.824668355751754234e+00,4.396419546899950070e-01
1.101101101101101243e+01,8.917062748888882950e+00,4.250009550545211789e-01
1.121121121121121256e+01,9.005883291930839363e+00,4.100107752484506984e-01
1.141141141141141269e+01,9.091094386686252804e+00,3.946742618438900951e-01
1.161161161161161282e+01,9.172661881586645194e+00,3.789952067143743664e-01
1.181181181181181294e+01,9.250553085373958595e+00,3.629784036319068097e-01
1.201201201201201307e+01,9.324736780202824704e+00,3.466297012899373087e-01
1.221221221221221320e+01,9.395183234152282736e+00,3.299560516599790994e-01
1.241241241241241333e+01,9.461864213141984337e+00,3.129655525368305047e-01
1.261261261261261346e+01,9.524752992248057382e+00,2.956674830961156242e-01
1.281281281281281359e+01,9.583824366414138041e+00,2.780723312829472271e-01
1.301301301301301372e+01,9.639054660553243892e+00,2.601918118755587317e-01
1.321321321321321385e+01,9.690421739036469972e+00,2.420388741271215227e-01
1.341341341341341398e+01,9.737905014564665507e+00,2.236276979850675695e-01
1.361361361361361411e+01,9.781485456419588331e+00,2.049736780213374243e-01
1.381381381381381424e+01,9.821145598091167273e+00,1.860933943802323132e-01
1.401401401401401436e+01,9.856869544277879314e+00,1.670045702603014937e-01
1.421421421421421449e+01,9.888642977257392275e+00,1.477260156900854216e-01
1.441441441441441462e+01,9.916453162624927486e+00,1.282775576295642483e-01
1.461461461461461475e+01,9.940288954397058063e+00,1.086799567216761991e-01
1.481481481481481488e+01,9.960140799478878648e+00,8.895481132339957964e-02
1.501501501501501679e+01,9.976000741492777379e+00,6.912444975246243017e-02
1.521521521521521692e+01,9.987862423967250436e+00,4.921181198315358052e-02
1.541541541541541704e+01,9.995721092884492620e+00,2.924032230148280315e-02
1.561561561561561717e+01,9.999573598585763889e+00,9.233754673581433953e-03
1.581581581581581730e+01,9.999418397033718264e+00,-1.078390721671547599e-02
1.601601601601601743e+01,9.995255550431251024e+00,-3.078861315542313556e-02
1.621621621621621756e+01,9.987086727196553326e+00,-5.075639061341294389e-02
1.641641641641641769e+01,9.974915201294439981e+00,-7.066348776183367653e-02
1.661661661661661782e+01,9.958745850924184850e+00,-9.048651309541273779e-02
1.681681681681681795e+01,9.938585156564389678e+00,-1.102025695671990796e-01
1.701701701701701808e+01,9.914441198375698150e+00,-1.297893812931055213e-01
1.721721721721721821e+01,9.886323652962353492e+00,-1.492254110894600805e-01
1.741741741741741833e+01,9.854243789493949635e+00,-1.684899673539761722e-01
1.761761761761761846e+01,9.818214465188868090e+00,-1.875632990791230026e-01
1.781781781781781859e+01,9.778250120161272818e+00,-2.064266780851619076e-01
1.801801801801801872e+01,9.734366771633682802e+00,-2.250624678674121582e-01
1.821821821821821885e+01,9.686582007517472448e+00,-2.434541787565140114e-01
1.841841841841841898e+01,9.634914979363838228e+00,-2.615865093817626996e-01
1.861861861861861911e+01,9.579386394688100381e+00,-2.794453746976078845e-01
1.881881881881881924e+01,9.520018508670380797e+00,-2.970179210744165466e-01
1.901901901901901937e+01,9.456835115235996625e+00,-3.142925291616339156e-01
1.921921921921921950e+01,9.389861537519145429e+00,-3.312588054015793704e-01
1.941941941941941963e+01,9.319124617713702818e+00,-3.479075632034586696e-01
1.961961961961961975e+01,9.244652706315193313e+00,-3.642307948802315787e-01
1.981981981981981988e+01,9.166475650758266980e+00,-3.802216355075827559e-01
2.002002002002002001e+01,9.084624783454199104e+00,-3.958743198868537871e-01
2.022022022022022014e+01,8.999132909233253486e+00,-4.111841337866741775e-01
2.042042042042042027e+01,8.910034292196893801e+00,-4.261473606049631102e-01
2.062062062062062040e+01,8.817364641985165008e+00,-4.407612245387529382e-01
2.082082082082082053e+01,8.721161099464687538e+00,-4.550238312785029327e-01
2.102102102102102066e+01,8.621462221843062324e+00,-4.689341071603613242e-01
2.122122122122122079e+01,8.518307967215605458e+00,-4.824917376187707330e-01
2.142142142142142447e+01,8.411739678550635091e+00,-4.956971056860633440e-01
2.162162162162162460e+01,8.301800067119716076e+00,-5.085512311888075176e-01
2.182182182182182473e+01,8.188533195379489982e+00,-5.210557111950085973e-01
2.202202202202202486e+01,8.071984459311991600e+00,-5.332126621744237571e-01
2.222222222222222499e+01,7.952200570230488985e+00,-5.450246642472953429e-01
2.242242242242242511e+01,7.829229536058155858e+00,-5.564947078162593153e-01
2.262262262262262524e+01,7.703120642087083247e+00,-5.676261428030051626e-01
2.282282282282282537e+01,7.573924431225337983e+00,-5.784226306453893462e-01
2.302302302302302550e+01,7.441692683739974612e+00,-5.888880991525560216e-01
2.322322322322322563e+01,7.306478396504136441e+00,-5.990267002652785999e-01
2.342342342342342576e+01,7.168335761756560842e+00,-6.088427707255453791e-01
2.362362362362362589e+01,7.027320145381984240e+00,-6.183407956230755342e-01
2.382382382382382602e+01,6.883488064721171362e+00,-6.275253747567107743e-01
2.402402402402402615e+01,6.736897165919453201e+00,-6.364011917245259164e-01
2.422422422422422628e+01,6.587606200822857971e+00,-6.449729856377318660e-01
2.442442442442442641e+01,6.435675003431081898e+00,-6.532455253392773775e-01
2.462462462462462653e+01,6.281164465916756257e+00,-6.612235859979077590e-01
2.482482482482482666e+01,6.124136514220602123e+00,-6.689119279418179742e-01
2.502502502502502679e+01,5.964654083232269421e+00,-6.763152775923468862e-01
2.522522522522522692e+01,5.802781091566804328e+00,-6.834383103569976470e-01
2.542542542542542705e+01,5.638582415946839177e+00,-6.902856353418249657e-01
2.562562562562562718e+01,5.472123865200797965e+00,-6.968617817457748442e-01
2.582582582582582731e+01,5.303472153887520690e+00,-7.031711868033934110e-01
2.602602602602602744e+01,5.132694875557875847e+00,-7.092181851470218401e-01
2.622622622622622757e+01,4.959860475664095603e+00,-7.150069994652529237e-01
2.642642642642642770e+01,4.785038224127663220e+00,-7.205417323404093022e-01
2.662662662662662783e+01,4.608298187576785665e+00,-7.258263591542891691e-01
2.682682682682682795e+01,4.429711201264529663e+00,-7.308647219580077792e-01
2.702702702702702808e+01,4.249348840678924155e+00,-7.356605242083792406e-01
2.722722722722722821e+01,4.067283392856372970e+00,-7.402173262800050280e-01
2.742742742742742834e+01,3.883587827409891169e+00,-7.445385416686401969e-01
2.762762762762762847e+01,3.698335767283777553e+00,-7.486274338078064972e-01
2.782782782782782860e+01,3.511601459246429080e+00,-7.524871134266488681e-01
2.802802802802802873e+01,3.323459744133146376e+00,-7.561205363828999992e-01
2.822822822822822886e+01,3.133986026850837270e+00,-7.595305019103805177e-01
2.842842842842842899e+01,2.943256246156646938e+00,-7.627196512256434469e-01
2.862862862862862912e+01,2.751346844222631205e+00,-7.656904664433786811e-01
2.882882882882882924e+01,2.558334735998665899e+00,-7.684452697548339595e-01
2.902902902902902937e+01,2.364297278385870449e+00,-7.709862228278354657e-01
2.922922922922922950e+01,2.169312239232906947e+00,-7.733153263910778064e-01
2.942942942942942963e+01,1.973457766167569849e+00,-7.754344199691429740e-01
2.962962962962962976e+01,1.776812355276174316e+00,-7.773451817382547313e-01
2.982982982982982989e+01,1.579454819643277386e+00,-7.790491284760743262e-01
3.003003003003003357e+01,1.381464257764350112e+00,-7.805476155818876771e-01
3.023023023023023370e+01,1.182920021844084513e+00,-7.818418371464791461e-01
3.043043043043043383e+01,9.839016859929671233e-01,-7.829328260535948214e-01
3.063063063063063396e+01,7.844890143349648737e-01,-7.838214540974712818e-01
3.083083083083083409e+01,5.847619290390311253e-01,-7.845084321032911312e-01
3.103103103103103422e+01,3.848004782872738727e-01,-7.849943100396481466e-01
3.123123123123123435e+01,1.846848041926204831e-01,-7.852794771142821428e-01
3.143143143143143448e+01,-1.550488932116543886e-02,-7.853641618463984564e-01
3.163163163163163460e+01,-2.156883686642387943e-01,-7.852484321108864629e-01
3.183183183183183473e+01,-4.157854027373184547e-01,-7.849321951517029827e-01
3.203203203203203486e+01,-6.157157950873342056e-01,-7.844151975636117768e-01
3.223223223223223499e+01,-8.153994160491879750e-01,-7.836970252433836936e-01
3.243243243243243512e+01,-1.014756234860746842e+00,-7.827771033134949263e-01
3.263263263263263525e+01,-1.213706351738197853e+00,-7.816546960233121677e-01
3.283283283283283538e+01,-1.412170029898907941e+00,-7.803289066347618430e-01
3.303303303303303551e+01,-1.610067727518953662e+00,-7.787986773015642683e-01
3.323323323323323564e+01,-1.807320129612516313e+00,-7.770627889532687460e-01
3.343343343343343577e+01,-2.003848179820360897e+00,-7.751198611976043429e-01
3.363363363363363590e+01,-2.199573112094662442e+00,-7.729683522570619525e-01
3.383383383383383602e+01,-2.394416482267478052e+00,-7.706065589581715392e-01
3.403403403403403615e+01,-2.588300199490212172e+00,-7.680326167946591731e-01
3.423423423423423628e+01,-2.781146557531477992e+00,-7.652445000885677029e-01
3.443443443443443641e+01,-2.972878265920810836e+00,-7.622400222765259858e-01
3.463463463463463654e+01,-3.163418480925741516e+00,-7.590168363517193484e-01
3.483483483483483667e+01,-3.352690836349832892e+00,-7.555724354956520061e-01
3.503503503503503680e+01,-3.540619474139318879e+00,-7.519041539376464245e-01
3.523523523523523693e+01,-3.727129074786085905e+00,-7.480091680841567392e-01
3.543543543543543706e+01,-3.912144887514819036e+00,-7.438844979643335353e-01
3.563563563563563719e+01,-4.095592760242197983e+00,-7.395270090429794108e-01
3.583583583583583732e+01,-4.277399169296148607e+00,-7.349334144570779381e-01
3.603603603603603744e+01,-4.457491248883237667e+00,-7.301002777372960217e-01
3.623623623623623757e+01,-4.635796820292392262e+00,-7.250240160814936941e-01
3.643643643643643770e+01,-4.812244420823247104e+00,-7.197009042531755663e-01
3.663663663663663783e+01,-4.986763332427528006e+00,-7.141270791838684184e-01
3.683683683683683796e+01,-5.159283610051979885e+00,-7.082985453648317220e-01
3.703703703703703809e+01,-5.329736109671494582e+00,-7.022111811200157927e-01
3.723723723723723822e+01,-5.498052516001189716e+00,-6.958607458588000894e-01
3.743743743743743835e+01,-5.664165369876349665e+00,-6.892428884136999612e-01
3.763763763763763848e+01,-5.828008095289226809e+00,-6.823531565748875982e-01
3.783783783783783861e+01,-5.989515026071904558e+00,-6.751870079396452562e-01
3.803803803803803874e+01,-6.148621432214489424e+00,-6.677398222009215401e-01
3.823823823823823886e+01,-6.305263545808114323e+00,-6.600069150046631306e-01
3.843843843843843899e+01,-6.459378586602337435e+00,-6.519835535101647928e-01
3.863863863863863912e+01,-6.610904787166704821e+00,-6.436649737913349156e-01
3.883883883883883925e+01,-6.759781417646379076e+00,-6.350464002190829849e-01
3.903903903903903938e+01,-6.905948810101928181e+00,-6.261230669654858083e-01
3.923923923923923951e+01,-7.049348382423508141e+00,-6.168902417689112738e-01
3.943943943943943964e+01,-7.189922661809861282e+00,-6.073432520951393965e-01
3.963963963963963977e+01,-7.327615307802705757e+00,-5.974775138223825666e-01
3.983983983983983990e+01,-7.462371134867320066e+00,-5.872885625673670562e-01
4.004004004004004003e+01,-7.594136134510215186e+00,-5.767720877548730973e-01
4.024024024024024015e+01,-7.722857496925096044e+00,-5.659239695134462567e-01
4.044044044044044028e+01,-7.848483632158377077e+00,-5.547403184551604749e-01
4.064064064064064041e+01,-7.970964190785815084e+00,-5.432175183665615137e-01
4.084084084084084054e+01,-8.090250084091938021e+00,-5.313522718004667356e-01
4.104104104104104067e+01,-8.206293503744214846e+00,-5.191416485142192894e-01
4.124124124124124080e+01,-8.319047940954032327e+00,-5.065831366482634879e-01
4.144144144144144093e+01,-8.428468205116878664e+00,-4.936746964796035475e-01
4.164164164164164106e+01,-8.534510441924163970e+00,-4.804148165177994367e-01
4.184184184184184119e+01,-8.637132150939500264e+00,-4.668025716367126265e-01
4.204204204204204132e+01,-8.736292202632361281e+00,-4.528376828535586318e-01
4.224224224224224145e+01,-8.831950854862299138e+00,-4.385205782791131712e-01
4.244244244244244157e+01,-8.924069768807100900e+00,-4.238524546703706375e-01
4.264264264264264170e+01,-9.012612024328527482e+00,-4.088353389208966848e-01
4.284284284284284894e+01,-9.097542134769460276e+00,-3.934721487271737317e-01
4.304304304304304907e+01,-9.178826061176501128e+00,-3.777667515741846560e-01
4.324324324324324920e+01,-9.256431225942394647e+00,-3.617240210931458311e-01
4.344344344344344933e+01,-9.330326525862725262e+00,-3.453498897629019848e-01
4.364364364364364945e+01,-9.400482344601700291e+00,-3.286513968579456990e-01
4.384384384384384958e+01,-9.466870564562020363e+00,-3.116367304946811023e-01
4.404404404404404971e+01,-9.529464578154064114e+00,-2.943152625984356008e-01
4.424424424424424984e+01,-9.588239298459894755e+00,-2.766975756106551665e-01
4.444444444444444997e+01,-9.643171169287786171e+00,-2.587954797835460563e-01
4.464464464464465010e+01,-9.694238174613252212e+00,-2.406220199716176678e-01
4.484484484484485023e+01,-9.741419847402815080e+00,-2.221914709281320732e-01
4.504504504504505036e+01,-9.784697277816929883e+00,-2.035193202522320999e-01
4.524524524524525049e+01,-9.824053120788819982e+00,-1.846222383082899432e-01
4.544544544544545062e+01,-9.859471602976178417e+00,-1.655180346514553980e-01
4.564564564564565075e+01,-9.890938529082914599e+00,-1.462256007396595947e-01
4.584584584584585087e+01,-9.918441287548473539e+00,-1.267648389856722846e-01
4.604604604604605100e+01,-9.941968855602382860e+00,-1.071565784970221064e-01
4.624624624624625113e+01,-9.961511803682048694e+00,-8.742247815708036052e-02
4.644644644644645126e+01,-9.977062299212015262e+00,-6.758491800682346617e-02
4.664664664664665139e+01,-9.988614109743155112e+00,-4.766688018323753107e-02
4.684684684684685152e+01,-9.996162605450567895e+00,-2.769182094453656942e-02
4.704704704704705165e+01,-9.999704760989150287e+00,-7.683535553607097682e-03
4.724724724724725178e+01,-9.999239156706124731e+00,1.233398201097699390e-02
4.744744744744745191e+01,-9.994765979210013640e+00,3.233668240133701771e-02
4.764764764764765204e+01,-9.986287021295854771e+00,5.230060510192773016e-02
4.784784784784785217e+01,-9.973805681226661335e+00,7.220202125973561313e-02
4.804804804804805229e+01,-9.957326961371448348e+00,9.201757295569576445e-02
4.824824824824825242e+01,-9.936857466200338607e+00,1.117244068310689342e-01
4.844844844844845255e+01,-9.912405399637577830e+00,1.313003001411222614e-01
4.864864864864865268e+01,-9.883980561773494600e+00,1.507237775171673677e-01
4.884884884884885281e+01,-9.851594344936748016e+00,1.699742169679605841e-01
4.904904904904905294e+01,-9.815259729128417376e+00,1.890319439319026185e-01
4.924924924924925307e+01,-9.774991276819784858e+00,2.078783124911595670e-01
4.944944944944945320e+01,-9.730805127115861097e+00,2.264957731658134854e-01
4.964964964964965333e+01,-9.682718989287037559e+00,2.448679270099898830e-01
4.984984984984985346e+01,-9.630752135671427183e+00,2.629795660220620168e-01
5.005005005005005358e+01,-9.574925393950742603e+00,2.808167001485283865e-01
5.025025025025025371e+01,-9.515261138802813434e+00,2.983665714000481861e-01
5.045045045045045384e+01,-9.451783282934092867e+00,3.156176558023217615e-01
5.065065065065065397e+01,-9.384517267495736448e+00,3.325596540716234673e-01
5.085085085085085410e+01,-9.313490051887093557e+00,3.491834720331060127e-01
5.105105105105105423e+01,-9.238730102950709622e+00,3.654811918901231804e-01
5.125125125125125436e+01,-9.160267383563169830e+00,3.814460355068208797e-01
5.145145145145145449e+01,-9.078133340626333592e+00,3.970723208863127240e-01
5.165165165165165462e+01,-8.992360892463805655e+00,4.123554130174011956e-01
5.185185185185185475e+01,-8.902984415627669179e+00,4.272916702280845080e-01
5.205205205205205488e+01,-8.810039731120788531e+00,4.418783871283556985e-01
5.225225225225225500e+01,-8.713564090040179622e+00,4.561137351528654627e-01
5.245245245245245513e+01,-8.613596158647229828e+00,4.699967016301114242e-01
